Version,id
341.0,867629722
342.0,867660964
343.0,867821102
344.0,867990482
345.0,868149971
346.0,868321356
347.0,868507755
348.0,868722696
349.0,868874083
349.1,869046645
350.0,869075479
351.0,869211575
352.0,869386246
353.0,869543006
354.0,869709205
355.0,869871472
356.0,870026292
357.0,870188897
358.0,870344812
