Version,id
12.130,867424053
12.140,867818358
12.150,868305135
12.160,868500115
12.161,868717824
12.170,869084057
12.180,869206380
12.190,869703469
12.200,869967380
12.210,870211448
12.220,870533586
12.230,870835903
12.240,871175835
